TH  Field size,0,10,20,30,40,50,60
20,0.666272569,0.678478282,0.70360064,0.727307358,0.746873747,0.759849539,0.759778848
30,0.672965138,0.684088541,0.707777654,0.730683262,0.749663455,0.762174479,0.761793779
40,0.679409272,0.68959834,0.711936791,0.73401682,0.752393398,0.764432028,0.763743571
50,0.685607369,0.694976982,0.71604709,0.737293821,0.755057184,0.766619518,0.765626759
60,0.691564007,0.700207326,0.720087753,0.740504192,0.757650285,0.768735558,0.767442944
70,0.697284749,0.705279545,0.724044229,0.74364046,0.76016973,0.770779169,0.769191789
80,0.70277595,0.710188216,0.727906295,0.746697355,0.762613377,0.772750319,0.770873481
90,0.70804423,0.714930718,0.731666697,0.749670849,0.764980074,0.774649139,0.772488444
100,0.713096574,0.719506377,0.735320368,0.752558385,0.767268865,0.776475921,0.774037363
110,0.717939695,0.72391596,0.738863868,0.755357962,0.769479612,0.778231288,0.775521067
120,0.722580656,0.728161182,0.742295121,0.758068401,0.771612194,0.779916179,0.776940662
130,0.727026099,0.732244528,0.745612933,0.760689129,0.773667171,0.78153149,0.778297079
140,0.731282848,0.73616895,0.748817058,0.763220062,0.775645067,0.783078279,0.779591589
150,0.735357497,0.739937903,0.751907778,0.76566145,0.777546656,0.784557801,0.780825135
160,0.739256459,0.743555018,0.754885967,0.768013785,0.77937296,0.785971234,0.781999204
170,0.742986096,0.747024144,0.757752711,0.770278142,0.781125107,0.787320126,0.783115202
180,0.746552516,0.750349354,0.760509777,0.772455496,0.782804353,0.788605638,0.784174211
190,0.749961583,0.753534773,0.763158847,0.774547153,0.784411993,0.789829232,0.785177754
200,0.75321919,0.756584438,0.765702107,0.776554615,0.785949477,0.790992433,0.786127155
210,0.756330975,0.759502705,0.768141701,0.77847936,0.78741829,0.79209674,0.787023817
220,0.75930234,0.762293618,0.770480031,0.780323159,0.788819959,0.793143495,0.787869111
230,0.762138569,0.764961294,0.772719446,0.782087698,0.790155972,0.79413439,0.788664541
240,0.764844845,0.767509956,0.774862571,0.783774846,0.79142793,0.795070707,0.789411291
250,0.767425983,0.769943542,0.776911897,0.78538641,0.792637613,0.79595416,0.790110928
260,0.769886901,0.772265923,0.778870129,0.786924449,0.793786558,0.796786038,0.790764679
270,0.772232138,0.774481149,0.780739839,0.788390817,0.794876323,0.797567984,0.791373892
280,0.774466077,0.776592913,0.782523664,0.78978744,0.795908734,0.798301427,0.791940072
290,0.776593216,0.778604873,0.784224248,0.791116217,0.796885225,0.79898772,0.79246437
300,0.778617548,0.780520722,0.785844126,0.792379175,0.797807588,0.799628376,0.792948174
310,0.780543095,0.782343976,0.787385845,0.793578259,0.798677253,0.800224818,0.793392678
320,0.78237377,0.784077944,0.788852012,0.794715299,0.799495922,0.800778382,0.793799159
330,0.784113184,0.785725884,0.79024505,0.795792339,0.800265072,0.801290388,0.794168884
340,0.785764963,0.787291212,0.79156749,0.796811116,0.800986331,0.801762347,0.794503028
350,0.787332599,0.788776886,0.792821647,0.797773649,0.801661176,0.802195363,0.794802699
360,0.788819321,0.790185881,0.794009885,0.798681578,0.802291047,0.802590843,0.795069127
370,0.790228309,0.791521117,0.795134395,0.799536751,0.802877447,0.802949941,0.795303351
380,0.791562657,0.792785355,0.796197536,0.800340923,0.803421822,0.80327387,0.795506475
390,0.792825343,0.79398141,0.797201418,0.801095729,0.803925587,0.803563882,0.795679614
400,0.794019149,0.795111872,0.798148141,0.801802881,0.804389976,0.80382107,0.795823772
410,0.795146789,0.79617915,0.799039747,0.802464048,0.80481638,0.804046569,0.795939903
420,0.79621086,0.797185709,0.79987824,0.803080728,0.805206091,0.80424154,0.796029017
430,0.797213884,0.798133889,0.800665512,0.803654482,0.805560326,0.804406995,0.796092085
440,0.798158267,0.799025914,0.801403414,0.804186874,0.805880399,0.804543935,0.796129986
450,0.799046366,0.799864024,0.802093715,0.804679231,0.806167391,0.804653392,0.796143609
460,0.799880367,0.80065024,0.802738248,0.80513305,0.806422529,0.804736316,0.796133823
470,0.800662399,0.801386562,0.803338698,0.805549619,0.806646877,0.804793677,0.796101472
480,0.801394494,0.802074926,0.803896646,0.805930285,0.806841556,0.80482635,0.796047363
490,0.80207862,0.802717183,0.804413638,0.80627635,0.807007601,0.804835213,0.795972285
500,0.802716633,0.803315102,0.80489123,0.80658908,0.807146022,0.804821126,0.795876978
510,0.803310363,0.803870372,0.805330871,0.806869643,0.807257788,0.804784929,0.795762173
520,0.80386158,0.804384672,0.805733958,0.807119191,0.807343834,0.804727438,0.795628631
530,0.804371925,0.804859586,0.806101821,0.807338852,0.807405108,0.80464942,0.795476976
540,0.804842981,0.805296615,0.806435808,0.807529706,0.807442503,0.804551591,0.795307859
550,0.805276274,0.805697212,0.806737193,0.807692801,0.80745687,0.804434676,0.795121956
560,0.805673278,0.806062803,0.807007237,0.807829137,0.807449054,0.804299349,0.794919883
570,0.806035391,0.806394709,0.807247029,0.807939674,0.807419872,0.804146322,0.794702233
580,0.806363963,0.806694192,0.80745769,0.80802535,0.807370071,0.803976257,0.79446956
590,0.806660278,0.806962503,0.80764034,0.80808707,0.807300398,0.80378971,0.794222442
600,0.806925598,0.807200828,0.807796004,0.808125719,0.80721157,0.803587319,0.793961452
610,0.807161102,0.80741032,0.807925697,0.808142144,0.807104269,0.803369665,0.793687037
620,0.807367933,0.80759207,0.808030371,0.808137161,0.806979169,0.803137359,0.793399688
630,0.807547198,0.807747134,0.808110965,0.808111546,0.806836937,0.80289089,0.793099941
640,0.807699951,0.807876535,0.80816836,0.80806606,0.806678217,0.802630754,0.792788202
650,0.807827192,0.807981225,0.808203418,0.808001407,0.806503579,0.802357508,0.792464953
660,0.807929891,0.808062135,0.808216969,0.807918286,0.806313578,0.80207161,0.79213065
670,0.808008975,0.808120157,0.8082098,0.807817366,0.806108785,0.801773522,0.791785635
680,0.808065329,0.80815614,0.808182676,0.807699297,0.805889756,0.801463716,0.791430325
690,0.808099812,0.808170916,0.808136344,0.8075647,0.805657018,0.801142616,0.791065167
700,0.808113238,0.808165279,0.808071505,0.807414182,0.805411069,0.800810584,0.790690481
710,0.808106393,0.808139979,0.807988833,0.807248309,0.805152348,0.80046806,0.790306634
720,0.808080033,0.808095744,0.807888979,0.80706766,0.80488134,0.800115517,0.789913952
730,0.808034886,0.808033272,0.807772565,0.806872751,0.80459853,0.799753199,0.789512766
740,0.807971644,0.807953241,0.807640201,0.806664091,0.804304303,0.799381515,0.789103446
750,0.807890972,0.807856293,0.807492463,0.806442176,0.803999072,0.799000838,0.788686204
760,0.807793513,0.807743051,0.807329902,0.806207486,0.803683223,0.798611456,0.788261381
770,0.807679886,0.807614105,0.807153067,0.805960505,0.80335719,0.798213732,0.787829322
780,0.807550677,0.80747003,0.806962464,0.805701661,0.803021306,0.797807942,0.787390198
790,0.807406456,0.807311373,0.806758599,0.805431385,0.802675932,0.797394376,0.78694432
800,0.807247772,0.807138664,0.806541948,0.805150073,0.802321395,0.796973376,0.786491948
810,0.807075149,0.806952408,0.80631295,0.804858106,0.801958064,0.796545146,0.786033328
820,0.806889088,0.806753105,0.806072056,0.80455588,0.801586194,0.796109976,0.785568674
830,0.806690071,0.80654121,0.805819681,0.80424378,0.801206148,0.795668159,0.785098237
840,0.806478562,0.806317174,0.805556248,0.803922133,0.80081823,0.795219868,0.784622226
850,0.806255011,0.806081428,0.805282143,0.80359127,0.800422683,0.794765401,0.784140811
860,0.806019844,0.805834393,0.804997741,0.803251521,0.800019774,0.794304964,0.783654262
870,0.805773473,0.805576467,0.804703422,0.802903206,0.799609809,0.793838765,0.783162708
880,0.805516295,0.805308028,0.804399522,0.80254664,0.799193002,0.79336703,0.78266639
890,0.805248688,0.805029448,0.804086378,0.802182087,0.798769595,0.79288995,0.782165449
900,0.804971019,0.804741085,0.803764311,0.801809837,0.798339861,0.792407764,0.781660063
910,0.80468364,0.804443284,0.803433636,0.801430155,0.79790401,0.791920589,0.781150412
920,0.804386888,0.804136372,0.803094651,0.801043322,0.797462205,0.791428663,0.780636645
930,0.804081091,0.803820665,0.802747636,0.800649578,0.79701473,0.790932135,0.780118905
940,0.803766563,0.803496469,0.802392882,0.800249131,0.796561758,0.790431173,0.779597375
950,0.803443604,0.803164076,0.802030643,0.799842234,0.796103474,0.789925968,0.779072181
960,0.803112504,0.802823766,0.801661184,0.799429112,0.795640078,0.789416611,0.778543434
970,0.80277354,0.802475812,0.801284739,0.799010018,0.79517173,0.788903325,0.778011329
980,0.802426982,0.802120466,0.80090156,0.798585114,0.794698623,0.788386203,0.777475923
990,0.802073089,0.801757985,0.800511881,0.798154589,0.794220935,0.787865392,0.776937393
1000,0.801712108,0.801388615,0.800115929,0.797718653,0.793738786,0.787341057,0.776395812
